# === DATA DESCRIPTION FILE ======================================================
#
# CAUTION - Investigational device.
# Limited by Federal Law to investigational use.
#
# Dataset name: W:\SuperExportData\BOYNTONVIS1\BVIS_002\\BVIS_002_WIP_128Dyn_3x3x3(0.5)_SENSE_4_1
#
# CLINICAL TRYOUT             Research image export tool     V4.2
#
# === GENERAL INFORMATION ========================================================
#
.    Patient name                       :   BVIS_002
.    Examination name                   :   BOYNTON VIS
.    Protocol name                      :   WIP 128Dyn 3x3x3(0.5) SENSE
.    Examination date/time              :   2015.11.30 / 15:30:07
.    Series Type                        :   Image   MRSERIES
.    Acquisition nr                     :   4
.    Reconstruction nr                  :   1
.    Scan Duration [sec]                :   270
.    Max. number of cardiac phases      :   1
.    Max. number of echoes              :   1
.    Max. number of slices/locations    :   30
.    Max. number of dynamics            :   128
.    Max. number of mixes               :   1
.    Patient position                   :   Head First Supine
.    Preparation direction              :   Anterior-Posterior
.    Technique                          :   FEEPI
.    Scan resolution  (x, y)            :   80  78
.    Scan mode                          :   MS
.    Repetition time [ms]               :   2000.001  
.    FOV (ap,fh,rl) [mm]                :   240.000  104.500  240.000
.    Water Fat shift [pixels]           :   10.679
.    Angulation midslice(ap,fh,rl)[degr]:   0.681  -2.815  -5.825
.    Off Centre midslice(ap,fh,rl) [mm] :   -19.904  29.152  3.061
.    Flow compensation <0=no 1=yes> ?   :   0
.    Presaturation     <0=no 1=yes> ?   :   0
.    Phase encoding velocity [cm/sec]   :   0.000000  0.000000  0.000000
.    MTC               <0=no 1=yes> ?   :   0
.    SPIR              <0=no 1=yes> ?   :   1
.    EPI factor        <0,1=no EPI>     :   39
.    Dynamic scan      <0=no 1=yes> ?   :   1
.    Diffusion         <0=no 1=yes> ?   :   0
.    Diffusion echo time [ms]           :   0.0000
.    Max. number of diffusion values    :   1
.    Max. number of gradient orients    :   1
.    Number of label types   <0=no ASL> :   0
#
# === PIXEL VALUES =============================================================
#  PV = pixel value in REC file, FP = floating point value, DV = displayed value on console
#  RS = rescale slope,           RI = rescale intercept,    SS = scale slope
#  DV = PV * RS + RI             FP = DV / (RS * SS)
#
# === IMAGE INFORMATION DEFINITION =============================================
#  The rest of this file contains ONE line per image, this line contains the following information:
#
#  slice number                             (integer)
#  echo number                              (integer)
#  dynamic scan number                      (integer)
#  cardiac phase number                     (integer)
#  image_type_mr                            (integer)
#  scanning sequence                        (integer)
#  index in REC file (in images)            (integer)
#  image pixel size (in bits)               (integer)
#  scan percentage                          (integer)
#  recon resolution (x y)                   (2*integer)
#  rescale intercept                        (float)
#  rescale slope                            (float)
#  scale slope                              (float)
#  window center                            (integer)
#  window width                             (integer)
#  image angulation (ap,fh,rl in degrees )  (3*float)
#  image offcentre (ap,fh,rl in mm )        (3*float)
#  slice thickness (in mm )                 (float)
#  slice gap (in mm )                       (float)
#  image_display_orientation                (integer)
#  slice orientation ( TRA/SAG/COR )        (integer)
#  fmri_status_indication                   (integer)
#  image_type_ed_es  (end diast/end syst)   (integer)
#  pixel spacing (x,y) (in mm)              (2*float)
#  echo_time                                (float)
#  dyn_scan_begin_time                      (float)
#  trigger_time                             (float)
#  diffusion_b_factor                       (float)
#  number of averages                       (integer)
#  image_flip_angle (in degrees)            (float)
#  cardiac frequency   (bpm)                (integer)
#  minimum RR-interval (in ms)              (integer)
#  maximum RR-interval (in ms)              (integer)
#  TURBO factor  <0=no turbo>               (integer)
#  Inversion delay (in ms)                  (float)
#  diffusion b value number    (imagekey!)  (integer)
#  gradient orientation number (imagekey!)  (integer)
#  contrast type                            (string)
#  diffusion anisotropy type                (string)
#  diffusion (ap, fh, rl)                   (3*float)
#  label type (ASL)            (imagekey!)  (integer)
#
# === IMAGE INFORMATION ==========================================================
#  sl ec  dyn ph ty    idx pix scan% rec size                (re)scale              window        angulation              offcentre        thick   gap   info      spacing     echo     dtime   ttime    diff  avg  flip    freq   RR-int  turbo delay b grad cont anis         diffusion       L.ty

  1   1    1  1 0 2     0  16   100   80   80     0.00000   0.81978 2.77974e-003  1088  1892   0.68  -2.81  -5.82  -25.05  -21.33    2.46  3.000  0.500 0 1 1 2  3.000  3.000  25.00    0.00     0.00    0.00   1   79.00     0    0    0    39   0.0  1   1    4    0   0.000    0.000    0.000  1
  2   1    1  1 0 2     1  16   100   80   80     0.00000   0.81978 2.77974e-003  1003  1743   0.68  -2.81  -5.82  -24.70  -17.85    2.50  3.000  0.500 0 1 1 2  3.000  3.000  25.00    0.00     0.00    0.00   1   79.00     0    0    0    39   0.0  1   1    4    0   0.000    0.000    0.000  1
  3   1    1  1 0 2     2  16   100   80   80     0.00000   0.81978 2.77974e-003   980  1704   0.68  -2.81  -5.82  -24.34  -14.37    2.54  3.000  0.500 0 1 1 2  3.000  3.000  25.00    0.00     0.00    0.00   1   79.00     0    0    0    39   0.0  1   1    4    0   0.000    0.000    0.000  1
  4   1    1  1 0 2     3  16   100   80   80     0.00000   0.81978 2.77974e-003   966  1679   0.68  -2.81  -5.82  -23.99  -10.89    2.58  3.000  0.500 0 1 1 2  3.000  3.000  25.00    0.00     0.00    0.00   1   79.00     0    0    0    39   0.0  1   1    4    0   0.000    0.000    0.000  1
  5   1    1  1 0 2     4  16   100   80   80     0.00000   0.81978 2.77974e-003   962  1673   0.68  -2.81  -5.82  -23.63   -7.41    2.62  3.000  0.500 0 1 1 2  3.000  3.000  25.00    0.00     0.00    0.00   1   79.00     0    0    0    39   0.0  1   1    4    0   0.000    0.000    0.000  1
  6   1    1  1 0 2     5  16   100   80   80     0.00000   0.81978 2.77974e-003   990  1721   0.68  -2.81  -5.82  -23.28   -3.92    2.67  3.000  0.500 0 1 1 2  3.000  3.000  25.00    0.00     0.00    0.00   1   79.00     0    0    0    39   0.0  1   1    4    0   0.000    0.000    0.000  1
  7   1    1  1 0 2     6  16   100   80   80     0.00000   0.81978 2.77974e-003  1024  1779   0.68  -2.81  -5.82  -22.92   -0.44    2.71  3.000  0.500 0 1 1 2  3.000  3.000  25.00    0.00     0.00    0.00   1   79.00     0    0    0    39   0.0  1   1    4    0   0.000    0.000    0.000  1
  8   1    1  1 0 2     7  16   100   80   80     0.00000   0.81978 2.77974e-003  1084  1885   0.68  -2.81  -5.82  -22.57    3.04    2.75  3.000  0.500 0 1 1 2  3.000  3.000  25.00    0.00     0.00    0.00   1   79.00     0    0    0    39   0.0  1   1    4    0   0.000    0.000    0.000  1
  9   1    1  1 0 2     8  16   100   80   80     0.00000   0.81978 2.77974e-003  1144  1989   0.68  -2.81  -5.82  -22.21    6.52    2.79  3.000  0.500 0 1 1 2  3.000  3.000  25.00    0.00     0.00    0.00   1   79.00     0    0    0    39   0.0  1   1    4    0   0.000    0.000    0.000  1
 10   1    1  1 0 2     9  16   100   80   80     0.00000   0.81978 2.77974e-003  1098  1909   0.68  -2.81  -5.82  -21.86   10.00    2.83  3.000  0.500 0 1 1 2  3.000  3.000  25.00    0.00     0.00    0.00   1   79.00     0    0    0    39   0.0  1   1    4    0   0.000    0.000    0.000  1
 11   1    1  1 0 2    10  16   100   80   80     0.00000   0.81978 2.77974e-003  1094  1902   0.68  -2.81  -5.82  -21.50   13.48    2.87  3.000  0.500 0 1 1 2  3.000  3.000  25.00    0.00     0.00    0.00   1   79.00     0    0    0    39   0.0  1   1    4    0   0.000    0.000    0.000  1
 12   1    1  1 0 2    11  16   100   80   80     0.00000   0.81978 2.77974e-003  1133  1970   0.68  -2.81  -5.82  -21.15   16.97    2.92  3.000  0.500 0 1 1 2  3.000  3.000  25.00    0.00     0.00    0.00   1   79.00     0    0    0    39   0.0  1   1    4    0   0.000    0.000    0.000  1
 13   1    1  1 0 2    12  16   100   80   80     0.00000   0.81978 2.77974e-003  1117  1942   0.68  -2.81  -5.82  -20.79   20.45    2.96  3.000  0.500 0 1 1 2  3.000  3.000  25.00    0.00     0.00    0.00   1   79.00     0    0    0    39   0.0  1   1    4    0   0.000    0.000    0.000  1
 14   1    1  1 0 2    13  16   100   80   80     0.00000   0.81978 2.77974e-003  1146  1993   0.68  -2.81  -5.82  -20.44   23.93    3.00  3.000  0.500 0 1 1 2  3.000  3.000  25.00    0.00     0.00    0.00   1   79.00     0    0    0    39   0.0  1   1    4    0   0.000    0.000    0.000  1
 15   1    1  1 0 2    14  16   100   80   80     0.00000   0.81978 2.77974e-003  1164  2024   0.68  -2.81  -5.82  -20.08   27.41    3.04  3.000  0.500 0 1 1 2  3.000  3.000  25.00    0.00     0.00    0.00   1   79.00     0    0    0    39   0.0  1   1    4    0   0.000    0.000    0.000  1
 16   1    1  1 0 2    15  16   100   80   80     0.00000   0.81978 2.77974e-003  1070  1860   0.68  -2.81  -5.82  -19.73   30.89    3.08  3.000  0.500 0 1 1 2  3.000  3.000  25.00    0.00     0.00    0.00   1   79.00     0    0    0    39   0.0  1   1    4    0   0.000    0.000    0.000  1
 17   1    1  1 0 2    16  16   100   80   80     0.00000   0.81978 2.77974e-003   963  1675   0.68  -2.81  -5.82  -19.37   34.37    3.12  3.000  0.500 0 1 1 2  3.000  3.000  25.00    0.00     0.00    0.00   1   79.00     0    0    0    39   0.0  1   1    4    0   0.000    0.000    0.000  1
 18   1    1  1 0 2    17  16   100   80   80     0.00000   0.81978 2.77974e-003   977  1698   0.68  -2.81  -5.82  -19.02   37.86    3.17  3.000  0.500 0 1 1 2  3.000  3.000  25.00    0.00     0.00    0.00   1   79.00     0    0    0    39   0.0  1   1    4    0   0.000    0.000    0.000  1
 19   1    1  1 0 2    18  16   100   80   80     0.00000   0.81978 2.77974e-003   997  1733   0.68  -2.81  -5.82  -18.66   41.34    3.21  3.000  0.500 0 1 1 2  3.000  3.000  25.00    0.00     0.00    0.00   1   79.00     0    0    0    39   0.0  1   1    4    0   0.000    0.000    0.000  1
 20   1    1  1 0 2    19  16   100   80   80     0.00000   0.81978 2.77974e-003  1085  1886   0.68  -2.81  -5.82  -18.31   44.82    3.25  3.000  0.500 0 1 1 2  3.000  3.000  25.00    0.00     0.00    0.00   1   79.00     0    0    0    39   0.0  1   1    4    0   0.000    0.000    0.000  1
 21   1    1  1 0 2    20  16   100   80   80     0.00000   0.81978 2.77974e-003   971  1689   0.68  -2.81  -5.82  -17.95   48.30    3.29  3.000  0.500 0 1 1 2  3.000  3.000  25.00    0.00     0.00    0.00   1   79.00     0    0    0    39   0.0  1   1    4    0   0.000    0.000    0.000  1
 22   1    1  1 0 2    21  16   100   80   80     0.00000   0.81978 2.77974e-003  1049  1823   0.68  -2.81  -5.82  -17.60   51.78    3.33  3.000  0.500 0 1 1 2  3.000  3.000  25.00    0.00     0.00    0.00   1   79.00     0    0    0    39   0.0  1   1    4    0   0.000    0.000    0.000  1
 23   1    1  1 0 2    22  16   100   80   80     0.00000   0.81978 2.77974e-003  1054  1832   0.68  -2.81  -5.82  -17.24   55.26    3.37  3.000  0.500 0 1 1 2  3.000  3.000  25.00    0.00     0.00    0.00   1   79.00     0    0    0    39   0.0  1   1    4    0   0.000    0.000    0.000  1
 24   1    1  1 0 2    23  16   100   80   80     0.00000   0.81978 2.77974e-003  1050  1825   0.68  -2.81  -5.82  -16.89   58.75    3.42  3.000  0.500 0 1 1 2  3.000  3.000  25.00    0.00     0.00    0.00   1   79.00     0    0    0    39   0.0  1   1    4    0   0.000    0.000    0.000  1
 25   1    1  1 0 2    24  16   100   80   80     0.00000   0.81978 2.77974e-003  1053  1830   0.68  -2.81  -5.82  -16.53   62.23    3.46  3.000  0.500 0 1 1 2  3.000  3.000  25.00    0.00     0.00    0.00   1   79.00     0    0    0    39   0.0  1   1    4    0   0.000    0.000    0.000  1
 26   1    1  1 0 2    25  16   100   80   80     0.00000   0.81978 2.77974e-003  1031  1792   0.68  -2.81  -5.82  -16.17   65.71    3.50  3.000  0.500 0 1 1 2  3.000  3.000  25.00    0.00     0.00    0.00   1   79.00     0    0    0    39   0.0  1   1    4    0   0.000    0.000    0.000  1
 27   1    1  1 0 2    26  16   100   80   80     0.00000   0.81978 2.77974e-003  1021  1776   0.68  -2.81  -5.82  -15.82   69.19    3.54  3.000  0.500 0 1 1 2  3.000  3.000  25.00    0.00     0.00    0.00   1   79.00     0    0    0    39   0.0  1   1    4    0   0.000    0.000    0.000  1
 28   1    1  1 0 2    27  16   100   80   80     0.00000   0.81978 2.77974e-003  1054  1832   0.68  -2.81  -5.82  -15.46   72.67    3.58  3.000  0.500 0 1 1 2  3.000  3.000  25.00    0.00     0.00    0.00   1   79.00     0    0    0    39   0.0  1   1    4    0   0.000    0.000    0.000  1
 29   1    1  1 0 2    28  16   100   80   80     0.00000   0.81978 2.77974e-003   910  1583   0.68  -2.81  -5.82  -15.11   76.15    3.62  3.000  0.500 0 1 1 2  3.000  3.000  25.00    0.00     0.00    0.00   1   79.00     0    0    0    39   0.0  1   1    4    0   0.000    0.000    0.000  1
 30   1    1  1 0 2    29  16   100   80   80     0.00000   0.81978 2.77974e-003   536   931   0.68  -2.81  -5.82  -14.75   79.64    3.66  3.000  0.500 0 1 1 2  3.000  3.000  25.00    0.00     0.00    0.00   1   79.00     0    0    0    39   0.0  1   1    4    0   0.000    0.000    0.000  1
  1   1    2  1 0 2    30  16   100   80   80     0.00000   0.81978 2.77974e-003  1129  1963   0.68  -2.81  -5.82  -25.05  -21.33    2.46  3.000  0.500 0 1 1 2  3.000  3.000  25.00    2.00     0.00    0.00   1   79.00     0    0    0    39   0.0  1   1    4    0   0.000    0.000    0.000  1
  2   1    2  1 0 2    31  16   100   80   80     0.00000   0.81978 2.77974e-003  1022  1777   0.68  -2.81  -5.82  -24.70  -17.85    2.50  3.000  0.500 0 1 1 2  3.000  3.000  25.00    2.00     0.00    0.00   1   79.00     0    0    0    39   0.0  1   1    4    0   0.000    0.000    0.000  1
  3   1    2  1 0 2    32  16   100   80   80     0.00000   0.81978 2.77974e-003   970  1686   0.68  -2.81  -5.82  -24.34  -14.37    2.54  3.000  0.500 0 1 1 2  3.000  3.000  25.00    2.00     0.00    0.00   1   79.00     0    0    0    39   0.0  1   1    4    0   0.000    0.000    0.000  1
  4   1    2  1 0 2    33  16   100   80   80     0.00000   0.81978 2.77974e-003   983  1709   0.68  -2.81  -5.82  -23.99  -10.89    2.58  3.000  0.500 0 1 1 2  3.000  3.000  25.00    2.00     0.00    0.00   1   79.00     0    0    0    39   0.0  1   1    4    0   0.000    0.000    0.000  1
  5   1    2  1 0 2    34  16   100   80   80     0.00000   0.81978 2.77974e-003   965  1677   0.68  -2.81  -5.82  -23.63   -7.41    2.62  3.000  0.500 0 1 1 2  3.000  3.000  25.00    2.00     0.00    0.00   1   79.00     0    0    0    39   0.0  1   1    4    0   0.000    0.000    0.000  1
  6   1    2  1 0 2    35  16   100   80   80     0.00000   0.81978 2.77974e-003   988  1718   0.68  -2.81  -5.82  -23.28   -3.92    2.67  3.000  0.500 0 1 1 2  3.000  3.000  25.00    2.00     0.00    0.00   1   79.00     0    0    0    39   0.0  1   1    4    0   0.000    0.000    0.000  1
  7   1    2  1 0 2    36  16   100   80   80     0.00000   0.81978 2.77974e-003  1036  1801   0.68  -2.81  -5.82  -22.92   -0.44    2.71  3.000  0.500 0 1 1 2  3.000  3.000  25.00    2.00     0.00    0.00   1   79.00     0    0    0    39   0.0  1   1    4    0   0.000    0.000    0.000  1
  8   1    2  1 0 2    37  16   100   80   80     0.00000   0.81978 2.77974e-003  1073  1866   0.68  -2.81  -5.82  -22.57    3.04    2.75  3.000  0.500 0 1 1 2  3.000  3.000  25.00    2.00     0.00    0.00   1   79.00     0    0    0    39   0.0  1   1    4    0   0.000    0.000    0.000  1
  9   1    2  1 0 2    38  16   100   80   80     0.00000   0.81978 2.77974e-003  1123  1953   0.68  -2.81  -5.82  -22.21    6.52    2.79  3.000  0.500 0 1 1 2  3.000  3.000  25.00    2.00     0.00    0.00   1   79.00     0    0    0    39   0.0  1   1    4    0   0.000    0.000    0.000  1
 10   1    2  1 0 2    39  16   100   80   80     0.00000   0.81978 2.77974e-003  1083  1883   0.68  -2.81  -5.82  -21.86   10.00    2.83  3.000  0.500 0 1 1 2  3.000  3.000  25.00    2.00     0.00    0.00   1   79.00     0    0    0    39   0.0  1   1    4    0   0.000    0.000    0.000  1
 11   1    2  1 0 2    40  16   100   80   80     0.00000   0.81978 2.77974e-003  1089  1893   0.68  -2.81  -5.82  -21.50   13.48    2.87  3.000  0.500 0 1 1 2  3.000  3.000  25.00    2.00     0.00    0.00   1   79.00     0    0    0    39   0.0  1   1    4    0   0.000    0.000    0.000  1
 12   1    2  1 0 2    41  16   100   80   80     0.00000   0.81978 2.77974e-003  1153  2004   0.68  -2.81  -5.82  -21.15   16.97    2.92  3.000  0.500 0 1 1 2  3.000  3.000  25.00    2.00     0.00    0.00   1   79.00     0    0    0    39   0.0  1   1    4    0   0.000    0.000    0.000  1
 13   1    2  1 0 2    42  16   100   80   80     0.00000   0.81978 2.77974e-003  1129  1963   0.68  -2.81  -5.82  -20.79   20.45    2.96  3.000  0.500 0 1 1 2  3.000  3.000  25.00    2.00     0.00    0.00   1   79.00     0    0    0    39   0.0  1   1    4    0   0.000    0.000    0.000  1
 14   1    2  1 0 2    43  16   100   80   80     0.00000   0.81978 2.77974e-003  1151  2000   0.68  -2.81  -5.82  -20.44   23.93    3.00  3.000  0.500 0 1 1 2  3.000  3.000  25.00    2.00     0.00    0.00   1   79.00     0    0    0    39   0.0  1   1    4    0   0.000    0.000    0.000  1
 15   1    2  1 0 2    44  16   100   80   80     0.00000   0.81978 2.77974e-003  1172  2037   0.68  -2.81  -5.82  -20.08   27.41    3.04  3.000  0.500 0 1 1 2  3.000  3.000  25.00    2.00     0.00    0.00   1   79.00     0    0    0    39   0.0  1   1    4    0   0.000    0.000    0.000  1
 16   1    2  1 0 2    45  16   100   80   80     0.00000   0.81978 2.77974e-003  1082  1881   0.68  -2.81  -5.82  -19.73   30.89    3.08  3.000  0.500 0 1 1 2  3.000  3.000  25.00    2.00     0.00    0.00   1   79.00     0    0    0    39   0.0  1   1    4    0   0.000    0.000    0.000  1
 17   1    2  1 0 2    46  16   100   80   80     0.00000   0.81978 2.77974e-003   964  1676   0.68  -2.81  -5.82  -19.37   34.37    3.12  3.000  0.500 0 1 1 2  3.000  3.000  25.00    2.00     0.00    0.00   1   79.00     0    0    0    39   0.0  1   1    4    0   0.000    0.000    0.000  1
 18   1    2  1 0 2    47  16   100   80   80     0.00000   0.81978 2.77974e-003   978  1700   0.68  -2.81  -5.82  -19.02   37.86    3.17  3.000  0.500 0 1 1 2  3.000  3.000  25.00    2.00     0.00    0.00   1   79.00     0    0    0    39   0.0  1   1    4    0   0.000    0.000    0.000  1
 19   1    2  1 0 2    48  16   100   80   80     0.00000   0.81978 2.77974e-003  1004  1745   0.68  -2.81  -5.82  -18.66   41.34    3.21  3.000  0.500 0 1 1 2  3.000  3.000  25.00    2.00     0.00    0.00   1   79.00     0    0    0    39   0.0  1   1    4    0   0.000    0.000    0.000  1
 20   1    2  1 0 2    49  16   100   80   80     0.00000   0.81978 2.77974e-003  1080  1878   0.68  -2.81  -5.82  -18.31   44.82    3.25  3.000  0.500 0 1 1 2  3.000  3.000  25.00    2.00     0.00    0.00   1   79.00     0    0    0    39   0.0  1   1    4    0   0.000    0.000    0.000  1
 21   1    2  1 0 2    50  16   100   80   80     0.00000   0.81978 2.77974e-003   984  1711   0.68  -2.81  -5.82  -17.95   48.30    3.29  3.000  0.500 0 1 1 2  3.000  3.000  25.00    2.00     0.00    0.00   1   79.00     0    0    0    39   0.0  1   1    4    0   0.000    0.000    0.000  1
 22   1    2  1 0 2    51  16   100   80   80     0.00000   0.81978 2.77974e-003  1048  1821   0.68  -2.81  -5.82  -17.60   51.78    3.33  3.000  0.500 0 1 1 2  3.000  3.000  25.00    2.00     0.00    0.00   1   79.00     0    0    0    39   0.0  1   1    4    0   0.000    0.000    0.000  1
 23   1    2  1 0 2    52  16   100   80   80     0.00000   0.81978 2.77974e-003  1061  1845   0.68  -2.81  -5.82  -17.24   55.26    3.37  3.000  0.500 0 1 1 2  3.000  3.000  25.00    2.00     0.00    0.00   1   79.00     0    0    0    39   0.0  1   1    4    0   0.000    0.000    0.000  1
 24   1    2  1 0 2    53  16   100   80   80     0.00000   0.81978 2.77974e-003  1055  1834   0.68  -2.81  -5.82  -16.89   58.75    3.42  3.000  0.500 0 1 1 2  3.000  3.000  25.00    2.00     0.00    0.00   1   79.00     0    0    0    39   0.0  1   1    4    0   0.000    0.000    0.000  1
 25   1    2  1 0 2    54  16   100   80   80     0.00000   0.81978 2.77974e-003  1051  1828   0.68  -2.81  -5.82  -16.53   62.23    3.46  3.000  0.500 0 1 1 2  3.000  3.000  25.00    2.00     0.00    0.00   1   79.00     0    0    0    39   0.0  1   1    4    0   0.000    0.000    0.000  1
 26   1    2  1 0 2    55  16   100   80   80     0.00000   0.81978 2.77974e-003  1030  1790   0.68  -2.81  -5.82  -16.17   65.71    3.50  3.000  0.500 0 1 1 2  3.000  3.000  25.00    2.00     0.00    0.00   1   79.00     0    0    0    39   0.0  1   1    4    0   0.000    0.000    0.000  1
 27   1    2  1 0 2    56  16   100   80   80     0.00000   0.81978 2.77974e-003  1019  1771   0.68  -2.81  -5.82  -15.82   69.19    3.54  3.000  0.500 0 1 1 2  3.000  3.000  25.00    2.00     0.00    0.00   1   79.00     0    0    0    39   0.0  1   1    4    0   0.000    0.000    0.000  1
 28   1    2  1 0 2    57  16   100   80   80     0.00000   0.81978 2.77974e-003  1058  1840   0.68  -2.81  -5.82  -15.46   72.67    3.58  3.000  0.500 0 1 1 2  3.000  3.000  25.00    2.00     0.00    0.00   1   79.00     0    0    0    39   0.0  1   1    4    0   0.000    0.000    0.000  1
 29   1    2  1 0 2    58  16   100   80   80     0.00000   0.81978 2.77974e-003   906  1575   0.68  -2.81  -5.82  -15.11   76.15    3.62  3.000  0.500 0 1 1 2  3.000  3.000  25.00    2.00     0.00    0.00   1   79.00     0    0    0    39   0.0  1   1    4    0   0.000    0.000    0.000  1
 30   1    2  1 0 2    59  16   100   80   80     0.00000   0.81978 2.77974e-003   557   968   0.68  -2.81  -5.82  -14.75   79.64    3.66  3.000  0.500 0 1 1 2  3.000  3.000  25.00    2.00     0.00    0.00   1   79.00     0    0    0    39   0.0  1   1    4    0   0.000    0.000    0.000  1
  1   1    3  1 0 2    60  16   100   80   80     0.00000   0.81978 2.77974e-003  1116  1940   0.68  -2.81  -5.82  -25.05  -21.33    2.46  3.000  0.500 0 1 1 2  3.000  3.000  25.00    4.00     0.00    0.00   1   79.00     0    0    0    39   0.0  1   1    4    0   0.000    0.000    0.000  1
  2   1    3  1 0 2    61  16   100   80   80     0.00000   0.81978 2.77974e-003  1040  1807   0.68  -2.81  -5.82  -24.70  -17.85    2.50  3.000  0.500 0 1 1 2  3.000  3.000  25.00    4.00     0.00    0.00   1   79.00     0    0    0    39   0.0  1   1    4    0   0.000    0.000    0.000  1
  3   1    3  1 0 2    62  16   100   80   80     0.00000   0.81978 2.77974e-003  1064  1849   0.68  -2.81  -5.82  -24.34  -14.37    2.54  3.000  0.500 0 1 1 2  3.000  3.000  25.00    4.00     0.00    0.00   1   79.00     0    0    0    39   0.0  1   1    4    0   0.000    0.000    0.000  1
  4   1    3  1 0 2    63  16   100   80   80     0.00000   0.81978 2.77974e-003   986  1714   0.68  -2.81  -5.82  -23.99  -10.89    2.58  3.000  0.500 0 1 1 2  3.000  3.000  25.00    4.00     0.00    0.00   1   79.00     0    0    0    39   0.0  1   1    4    0   0.000    0.000    0.000  1
  5   1    3  1 0 2    64  16   100   80   80     0.00000   0.81978 2.77974e-003   964  1677   0.68  -2.81  -5.82  -23.63   -7.41    2.62  3.000  0.500 0 1 1 2  3.000  3.000  25.00    4.00     0.00    0.00   1   79.00     0    0    0    39   0.0  1   1    4    0   0.000    0.000    0.000  1
  6   1    3  1 0 2    65  16   100   80   80     0.00000   0.81978 2.77974e-003   992  1725   0.68  -2.81  -5.82  -23.28   -3.92    2.67  3.000  0.500 0 1 1 2  3.000  3.000  25.00    4.00     0.00    0.00   1   79.00     0    0    0    39   0.0  1   1    4    0   0.000    0.000    0.000  1
  7   1    3  1 0 2    66  16   100   80   80     0.00000   0.81978 2.77974e-003  1055  1833   0.68  -2.81  -5.82  -22.92   -0.44    2.71  3.000  0.500 0 1 1 2  3.000  3.000  25.00    4.00     0.00    0.00   1   79.00     0    0    0    39   0.0  1   1    4    0   0.000    0.000    0.000  1
  8   1    3  1 0 2    67  16   100   80   80     0.00000   0.81978 2.77974e-003  1084  1884   0.68  -2.81  -5.82  -22.57    3.04    2.75  3.000  0.500 0 1 1 2  3.000  3.000  25.00    4.00     0.00    0.00   1   79.00     0    0    0    39   0.0  1   1    4    0   0.000    0.000    0.000  1
  9   1    3  1 0 2    68  16   100   80   80     0.00000   0.81978 2.77974e-003  1124  1955   0.68  -2.81  -5.82  -22.21    6.52    2.79  3.000  0.500 0 1 1 2  3.000  3.000  25.00    4.00     0.00    0.00   1   79.00     0    0    0    39   0.0  1   1    4    0   0.000    0.000    0.000  1
 10   1    3  1 0 2    69  16   100   80   80     0.00000   0.81978 2.77974e-003  1100  1912   0.68  -2.81  -5.82  -21.86   10.00    2.83  3.000  0.500 0 1 1 2  3.000  3.000  25.00    4.00     0.00    0.00   1   79.00     0    0    0    39   0.0  1   1    4    0   0.000    0.000    0.000  1
 11   1    3  1 0 2    70  16   100   80   80     0.00000   0.81978 2.77974e-003  1094  1901   0.68  -2.81  -5.82  -21.50   13.48    2.87  3.000  0.500 0 1 1 2  3.000  3.000  25.00    4.00     0.00    0.00   1   79.00     0    0    0    39   0.0  1   1    4    0   0.000    0.000    0.000  1
 12   1    3  1 0 2    71  16   100   80   80     0.00000   0.81978 2.77974e-003  1147  1995   0.68  -2.81  -5.82  -21.15   16.97    2.92  3.000  0.500 0 1 1 2  3.000  3.000  25.00    4.00     0.00    0.00   1   79.00     0    0    0    39   0.0  1   1    4    0   0.000    0.000    0.000  1
 13   1    3  1 0 2    72  16   100   80   80     0.00000   0.81978 2.77974e-003  1117  1941   0.68  -2.81  -5.82  -20.79   20.45    2.96  3.000  0.500 0 1 1 2  3.000  3.000  25.00    4.00     0.00    0.00   1   79.00     0    0    0    39   0.0  1   1    4    0   0.000    0.000    0.000  1
 14   1    3  1 0 2    73  16   100   80   80     0.00000   0.81978 2.77974e-003  1157  2012   0.68  -2.81  -5.82  -20.44   23.93    3.00  3.000  0.500 0 1 1 2  3.000  3.000  25.00    4.00     0.00    0.00   1   79.00     0    0    0    39   0.0  1   1    4    0   0.000    0.000    0.000  1
 15   1    3  1 0 2    74  16   100   80   80     0.00000   0.81978 2.77974e-003  1164  2024   0.68  -2.81  -5.82  -20.08   27.41    3.04  3.000  0.500 0 1 1 2  3.000  3.000  25.00    4.00     0.00    0.00   1   79.00     0    0    0    39   0.0  1   1    4    0   0.000    0.000    0.000  1
 16   1    3  1 0 2    75  16   100   80   80     0.00000   0.81978 2.77974e-003  1092  1899   0.68  -2.81  -5.82  -19.73   30.89    3.08  3.000  0.500 0 1 1 2  3.000  3.000  25.00    4.00     0.00    0.00   1   79.00     0    0    0    39   0.0  1   1    4    0   0.000    0.000    0.000  1
 17   1    3  1 0 2    76  16   100   80   80     0.00000   0.81978 2.77974e-003   962  1671   0.68  -2.81  -5.82  -19.37   34.37    3.12  3.000  0.500 0 1 1 2  3.000  3.000  25.00    4.00     0.00    0.00   1   79.00     0    0    0    39   0.0  1   1    4    0   0.000    0.000    0.000  1
 18   1    3  1 0 2    77  16   100   80   80     0.00000   0.81978 2.77974e-003   990  1721   0.68  -2.81  -5.82  -19.02   37.86    3.17  3.000  0.500 0 1 1 2  3.000  3.000  25.00    4.00     0.00    0.00   1   79.00     0    0    0    39   0.0  1   1    4    0   0.000    0.000    0.000  1
 19   1    3  1 0 2    78  16   100   80   80     0.00000   0.81978 2.77974e-003  1018  1770   0.68  -2.81  -5.82  -18.66   41.34    3.21  3.000  0.500 0 1 1 2  3.000  3.000  25.00    4.00     0.00    0.00   1   79.00     0    0    0    39   0.0  1   1    4    0   0.000    0.000    0.000  1
 20   1    3  1 0 2    79  16   100   80   80     0.00000   0.81978 2.77974e-003  1087  1889   0.68  -2.81  -5.82  -18.31   44.82    3.25  3.000  0.500 0 1 1 2  3.000  3.000  25.00    4.00     0.00    0.00   1   79.00     0    0    0    39   0.0  1   1    4    0   0.000    0.000    0.000  1
 21   1    3  1 0 2    80  16   100   80   80     0.00000   0.81978 2.77974e-003   984  1710   0.68  -2.81  -5.82  -17.95   48.30    3.29  3.000  0.500 0 1 1 2  3.000  3.000  25.00    4.00     0.00    0.00   1   79.00     0    0    0    39   0.0  1   1    4    0   0.000    0.000    0.000  1
 22   1    3  1 0 2    81  16   100   80   80     0.00000   0.81978 2.77974e-003  1045  1817   0.68  -2.81  -5.82  -17.60   51.78    3.33  3.000  0.500 0 1 1 2  3.000  3.000  25.00    4.00     0.00    0.00   1   79.00     0    0    0    39   0.0  1   1    4    0   0.000    0.000    0.000  1
 23   1    3  1 0 2    82  16   100   80   80     0.00000   0.81978 2.77974e-003  1064  1850   0.68  -2.81  -5.82  -17.24   55.26    3.37  3.000  0.500 0 1 1 2  3.000  3.000  25.00    4.00     0.00    0.00   1   79.00     0    0    0    39   0.0  1   1    4    0   0.000    0.000    0.000  1
